"Time,s","Current,A"
4.5e-05,-4.5837463566009015e-08
0.000145,-4.0175641711692736e-08
0.000245,-3.477949750733418e-08
0.000345,-2.9764205235172173e-08
0.000445,-2.5203946347049867e-08
0.000545,-2.114319313274705e-08
0.000645,-1.7605948661753624e-08
0.000745,-1.4603288421620934e-08
0.0008449999999999,-1.2139496687787246e-08
0.000945,-1.0217076694378525e-08
0.001045,-8.840817114330278e-09
0.001145,-8.021051434672284e-09
0.001245,-7.776275558798478e-09
0.001345,-8.135230198615005e-09
0.001445,-9.138462472222422e-09
0.001545,-1.0839381346342413e-08
0.001645,-1.330475598903702e-08
0.001745,-1.6614667158919048e-08
0.001845,-2.0861751404061022e-08
0.001945,-2.6149619568055774e-08
0.002045,-3.259018497506702e-08
0.002145,-4.029963879974608e-08
0.002245,-4.939278163022017e-08
0.002345,-5.997527777246922e-08
0.002445,-7.21332837160311e-08
0.002545,-8.591993757396861e-08
0.002645,-1.0133806228425837e-07
0.002745,-1.1831824212614117e-07
0.002845,-1.3669140384235285e-07
0.002945,-1.5615490983492916e-07
0.003045,-1.7623108162729276e-07
0.003145,-1.9621663456149206e-07
0.003245,-2.1512282809289394e-07
0.003345,-2.3161340329712685e-07
0.003445,-2.442175197931673e-07
0.003545,-2.521493475842417e-07
0.003645,-2.556903548780167e-07
0.003745,-2.561905334581147e-07
0.003845,-2.5564919862104016e-07
0.003945,-2.556031728304744e-07
0.004045,-2.566837612522692e-07
0.004145,-2.5866778857519725e-07
0.004245,-2.604670283844863e-07
0.004345,-2.6023258435466016e-07
0.004445,-2.56128894867213e-07
0.004545,-2.4717467709649657e-07
0.004645,-2.3344108025284958e-07
0.004745,-2.1604041619306845e-07
0.004845,-1.96801476405055e-07
0.004945,-1.774518800074848e-07
0.005045,-1.5902223498023894e-07
0.0051449999999999,-1.4205907417728412e-07
0.005245,-1.2693379793624245e-07
0.005345,-1.1384611642845525e-07
0.005445,-1.0284095524896468e-07
0.005545,-9.383709911154337e-08
0.005645,-8.66605978989133e-08
0.005745,-8.107830269908145e-08
0.005845,-7.682774631420631e-08
0.005945,-7.364168775133099e-08
0.006045,-7.126740599555922e-08
0.006145,-6.948138974072713e-08
0.006245,-6.809983169040863e-08
0.006345,-6.698531382122067e-08
0.006445,-6.604927456561166e-08
0.006545,-6.52493372633626e-08
0.006645,-6.458096556002574e-08
0.006745,-6.40645976136656e-08
0.006845,-6.37312122088133e-08
0.006945,-6.360953028406351e-08
0.007045,-6.371689112042904e-08
0.007145,-6.405439371413367e-08
0.007245,-6.460588658660838e-08
0.007345,-6.533984105497243e-08
0.007445,-6.621303280827343e-08
0.007545,-6.717518549311124e-08
0.007645,-6.817383872482889e-08
0.007745,-6.915904235714482e-08
0.007845,-7.008726085582192e-08
0.007945,-7.092430008866056e-08
0.008045,-7.164718153561473e-08
0.008145,-7.224500749422728e-08
0.008245,-7.27187774723001e-08
0.008345,-7.307998353471552e-08
0.008445,-7.334817471233193e-08
0.008545,-7.354789999877042e-08
0.008645,-7.370533566197036e-08
0.008745,-7.384514303920255e-08
0.008845,-7.398794208587277e-08
0.008945,-7.414854735909338e-08
0.009045,-7.433515870801553e-08
0.009145,-7.454951562607976e-08
0.009245,-7.478773572288543e-08
0.009345,-7.504162670505589e-08
0.009445,-7.530025451197317e-08
0.009545,-7.555156789616633e-08
0.009645,-7.57839027293796e-08
0.009745,-7.598725636595086e-08
0.009845,-7.615424380617724e-08
0.009945,-7.628077014136022e-08
0.010045,-7.63662676548912e-08
0.010145,-7.641351257662717e-08
0.010245,-7.642809297160029e-08
0.010345,-7.64175696525705e-08
0.010445,-7.63905971648045e-08
0.010545,-7.635592215082129e-08
0.010645,-7.63214333364855e-08
0.010745,-7.62934097905247e-08
0.010845,-7.627606358671863e-08
0.010945,-7.627137293155387e-08
0.011045,-7.627919307502446e-08
0.011145,-7.629758283070413e-08
0.011245,-7.632321623877401e-08
0.011345,-7.635191819153269e-08
0.011445,-7.637927197614495e-08
0.011545,-7.640115384234059e-08
0.011645,-7.641414478766522e-08
0.011745,-7.64158392472761e-08
0.011845,-7.64050149941505e-08
0.011945,-7.638164628697099e-08
0.012045,-7.634688843356659e-08
0.012145,-7.63028709365676e-08
0.012245,-7.625232912657404e-08
0.012345,-7.619826169157175e-08
0.012445,-7.6143590879043e-08
0.012545,-7.609085704486352e-08
0.012645,-7.604196225183538e-08
0.012745,-7.599802932901212e-08
0.012845,-7.595937900964729e-08
0.012945,-7.592561042477232e-08
0.013045,-7.58957518337862e-08
0.013145,-7.586845311450729e-08
0.013245,-7.584217530201449e-08
0.013345,-7.581535680070427e-08
0.013445,-7.578654459932064e-08
0.013545,-7.575452414621275e-08
0.013645,-7.57184821767998e-08
0.013745,-7.567806973916159e-08
0.013845,-7.563340932085493e-08
0.013945,-7.558503476300364e-08
0.0140449999999999,-7.553374948425278e-08
0.014145,-7.548050757687005e-08
0.0142449999999999,-7.542631702952417e-08
0.014345,-7.537215105664145e-08
0.014445,-7.531890050189314e-08
0.0145449999999999,-7.526728091850305e-08
0.014645,-7.52177535329745e-08
0.014745,-7.517046764569008e-08
0.014845,-7.512529935861664e-08
0.014945,-7.50819220765389e-08
0.015045,-7.503985964410694e-08
0.015145,-7.499856741691676e-08
0.015245,-7.49574897645331e-08
0.015345,-7.491615886415394e-08
0.015445,-7.487423421271525e-08
0.015545,-7.483145799357738e-08
0.015645,-7.478766870192459e-08
0.015745,-7.474281580675915e-08
0.015845,-7.469699998213484e-08
0.015945,-7.465050057559995e-08
0.016045,-7.460368827173832e-08
0.016145,-7.45569785295203e-08
0.016245,-7.45107216724563e-08
0.016345,-7.446511579313226e-08
0.016445,-7.442020502450894e-08
0.016545,-7.437592874485268e-08
0.016645,-7.433216535135641e-08
0.016745,-7.428874708157412e-08
0.016845,-7.424550508293234e-08
0.016945,-7.420229329313745e-08
0.017045,-7.415897771718545e-08
0.017145,-7.411548077058729e-08
0.017245,-7.407180545806313e-08
0.017345,-7.402799176390189e-08
0.017445,-7.398409249837358e-08
0.017545,-7.394017844523144e-08
0.017645,-7.389632949510705e-08
0.017745,-7.38526521844894e-08
0.017845,-7.380924628547684e-08
0.017945,-7.376619404533478e-08
0.018045,-7.372357498998312e-08
0.018145,-7.368145157747058e-08
0.018245,-7.363983583323956e-08
0.018345,-7.359870274412338e-08
0.018445,-7.355796547343847e-08
0.018545,-7.35174635596601e-08
0.018645,-7.347698543742036e-08
0.018745,-7.343634005039388e-08
0.018845,-7.33954080675359e-08
0.018945,-7.335421891710856e-08
0.019045,-7.331293045624904e-08
0.019145,-7.327169767387859e-08
0.019245,-7.32305903614437e-08
0.019345,-7.318961660693715e-08
0.019445,-7.314882348592956e-08
0.019545,-7.310829519316727e-08
0.019645,-7.306808246020484e-08
0.019745,-7.302820171121833e-08
0.019845,-7.298859748799569e-08
0.019945,-7.29491549490046e-08
0.020045,-7.290976890741733e-08
0.020145,-7.287041992521255e-08
0.020245,-7.283117207040322e-08
0.020345,-7.279211326865113e-08
0.020445,-7.275333976162279e-08
0.020545,-7.271493590886323e-08
0.020645,-7.267695183255189e-08
0.020745,-7.263937785118306e-08
0.020845,-7.260211479108026e-08
0.020945,-7.256504749751981e-08
0.021045,-7.25280721944883e-08
0.021145,-7.249109052212153e-08
0.021245,-7.24540668950772e-08
0.021345,-7.24170361084516e-08
0.021445,-7.23800600689376e-08
0.021545,-7.234318543014527e-08
0.021645,-7.230642445930944e-08
0.021745,-7.22698064934458e-08
0.021845,-7.223337221385478e-08
0.021945,-7.219718653393044e-08
0.022045,-7.21613200019472e-08
0.022145,-7.21258044435772e-08
0.022245,-7.209063045690752e-08
0.022345,-7.20557412993851e-08
0.022445,-7.202110192526044e-08
0.022545,-7.198672026737521e-08
0.022645,-7.195261495336033e-08
0.022745,-7.19188101127474e-08
0.022845,-7.188531131694882e-08
0.022945,-7.18521208173644e-08
0.023045,-7.181923502304677e-08
0.023145,-7.178667831880646e-08
0.023245,-7.175455929392604e-08
0.023345,-7.17230133190418e-08
0.023445,-7.169208461843628e-08
0.023545,-7.166170910891159e-08
0.023645,-7.163177189236581e-08
0.023745,-7.160217209495526e-08
0.023845,-7.157280467722521e-08
0.023945,-7.154358109947196e-08
0.024045,-7.151444938158624e-08
0.024145,-7.148539271014371e-08
0.024245,-7.14564044316959e-08
0.024345,-7.142749062979258e-08
0.024445,-7.139871069637487e-08
0.024545,-7.137010817615014e-08
0.024645,-7.13416251684497e-08
0.024745,-7.131313943488957e-08
0.024845,-7.128456596869184e-08
0.024945,-7.125587498819822e-08
0.025045,-7.12270895534889e-08
0.025145,-7.119833071949916e-08
0.025245,-7.116977459171688e-08
0.025345,-7.114156428304791e-08
0.025445,-7.111379164043852e-08
0.025545,-7.108648249773472e-08
0.025645,-7.105956912746722e-08
0.025745,-7.103291756778486e-08
0.025845,-7.100636798554609e-08
0.025945,-7.097978475930593e-08
0.026045,-7.095313321660724e-08
0.026145,-7.09264064566528e-08
0.026245,-7.089957690932195e-08
0.026345,-7.087263477776055e-08
0.026445,-7.084558166315803e-08
0.026545,-7.081837763309611e-08
0.026645,-7.079097129389996e-08
0.026745,-7.076331160024557e-08
0.026845,-7.073533460874819e-08
0.026945,-7.070702239747144e-08
0.027045,-7.067842004888765e-08
0.027145,-7.064959453047418e-08
0.027245,-7.062061143192322e-08
0.027345,-7.059155538453652e-08
0.027445,-7.056253956369893e-08
0.0275449999999999,-7.053367748846407e-08
0.027645,-7.05050463033725e-08
0.027745,-7.04767114295801e-08
0.027845,-7.044871794865496e-08
0.027945,-7.042109857736372e-08
0.028045,-7.039384446727339e-08
0.028145,-7.036692406816466e-08
0.028245,-7.034033419110994e-08
0.028345,-7.031407198347167e-08
0.028445,-7.028806393933643e-08
0.028545,-7.026213703016278e-08
0.028645,-7.023603864797454e-08
0.028745,-7.020954591740281e-08
0.028845,-7.018255679242802e-08
0.028945,-7.015509427993292e-08
0.029045,-7.012726009357278e-08
0.0291449999999999,-7.009924794237648e-08
0.029245,-7.007123479471808e-08
0.029345,-7.004327947525501e-08
0.029445,-7.001540321466156e-08
0.029545,-6.998766515136797e-08
0.0296449999999999,-6.996014314752965e-08
0.029745,-6.993293756964463e-08
0.029845,-6.990617224992454e-08
0.029945,-6.987998995526058e-08
0.030045,-6.985445428616746e-08
0.0301449999999999,-6.982955412514624e-08
0.030245,-6.980528023684328e-08
0.030345,-6.978164967003847e-08
0.030445,-6.975870617318658e-08
0.030545,-6.973648693503833e-08
0.030645,-6.971500335658607e-08
0.030745,-6.969425261276615e-08
0.030845,-6.967419089252348e-08
0.030945,-6.96547234356814e-08
0.031045,-6.963573569776882e-08
0.031145,-6.961711851664123e-08
0.031245,-6.959882068735455e-08
0.031345,-6.958085927727463e-08
0.031445,-6.956327400394028e-08
0.031545,-6.95461006407501e-08
0.031645,-6.952937514595751e-08
0.031745,-6.951314346533254e-08
0.031845,-6.94974039981461e-08
0.031945,-6.948204694454778e-08
0.032045,-6.94668575416169e-08
0.032145,-6.945160103832087e-08
0.0322449999999999,-6.943605349179284e-08
0.032345,-6.941999325208878e-08
0.032445,-6.940325883930978e-08
0.032545,-6.938576649603133e-08
0.032645,-6.93674519917078e-08
0.032745,-6.934828666711829e-08
0.032845,-6.93283116453961e-08
0.032945,-6.930762257001902e-08
0.033045,-6.92863300974847e-08
0.033145,-6.926458382563585e-08
0.033245,-6.924260076077145e-08
0.033345,-6.922060025142275e-08
0.033445,-6.91987388605786e-08
0.033545,-6.917706722825681e-08
0.033645,-6.915556751827457e-08
0.033745,-6.91342121445806e-08
0.033845,-6.911296435443341e-08
0.033945,-6.90918437945465e-08
0.034045,-6.907091882108313e-08
0.034145,-6.905028728159189e-08
0.034245,-6.903003236895053e-08
0.034345,-6.901018065143202e-08
0.034445,-6.899072182017102e-08
0.034545,-6.897160411392365e-08
0.034645,-6.89527593048436e-08
0.034745,-6.893414364964812e-08
0.034845,-6.891573324671856e-08
0.034945,-6.889751391037151e-08
0.035045,-6.887948332566455e-08
0.035145,-6.886163581550263e-08
0.035245,-6.884399684576458e-08
0.035345,-6.882662037656036e-08
0.035445,-6.880953184582044e-08
0.035545,-6.879276154586284e-08
0.0356449999999999,-6.877631209071323e-08
0.035745,-6.876011504102205e-08
0.035845,-6.874405138657814e-08
0.035945,-6.872796011475391e-08
0.036045,-6.871164137575797e-08
0.036145,-6.86949180647148e-08
0.036245,-6.867765898375336e-08
0.036345,-6.865984309287177e-08
0.036445,-6.8641513977811e-08
0.036545,-6.862275115070704e-08
0.036645,-6.860368348520469e-08
0.036745,-6.85844162487841e-08
0.036845,-6.856499327082958e-08
0.036945,-6.854541161963134e-08
0.037045,-6.852568855237011e-08
0.037145,-6.850587306232621e-08
0.037245,-6.848601894377064e-08
0.037345,-6.84662001683529e-08
0.037445,-6.844650919589439e-08
0.037545,-6.84270608696088e-08
0.037645,-6.840800708961382e-08
0.037745,-6.838949964689006e-08
0.037845,-6.837164198635984e-08
0.037945,-6.83544924196699e-08
0.038045,-6.833808710172967e-08
0.038145,-6.832240956622913e-08
0.038245,-6.830738228107699e-08
0.038345,-6.82928416659999e-08
0.038445,-6.827859100912029e-08
0.038545,-6.826448773749782e-08
0.038645,-6.825044379534865e-08
0.038745,-6.823641883366748e-08
0.038845,-6.822244639968212e-08
0.038945,-6.820858263281686e-08
0.039045,-6.819487126416061e-08
0.039145,-6.818132186608127e-08
0.039245,-6.816792298141446e-08
0.039345,-6.815467590830236e-08
0.039445,-6.814158219670533e-08
0.039545,-6.812861828403208e-08
0.039645,-6.811578042850336e-08
0.0397449999999999,-6.81030984672737e-08
0.039845,-6.809056896368327e-08
0.039945,-6.807811866401508e-08
0.040045,-6.806567476842432e-08
0.040145,-6.805319167206536e-08
0.0402449999999999,-6.804065686873556e-08
0.040345,-6.802811249360644e-08
0.040445,-6.801563346077888e-08
0.040545,-6.800325296424627e-08
0.040645,-6.79909295886058e-08
0.0407449999999999,-6.797857645472257e-08
0.040845,-6.796608451734095e-08
0.040945,-6.795332219722175e-08
0.041045,-6.794014356102413e-08
0.041145,-6.792644153708118e-08
0.041245,-6.791218263617417e-08
0.041345,-6.78974021628848e-08
0.041445,-6.78821800433845e-08
0.041545,-6.786665654874593e-08
0.041645,-6.785101975257987e-08
0.041745,-6.783550448463145e-08
0.041845,-6.782033019023522e-08
0.041945,-6.780561777946753e-08
0.042045,-6.779137610467284e-08
0.042145,-6.777756347094983e-08
0.042245,-6.776415945405667e-08
0.042345,-6.77511000479305e-08
0.042445,-6.77382358150858e-08
0.042545,-6.772536972244653e-08
0.042645,-6.771236947451738e-08
0.042745,-6.76991671907573e-08
0.042845,-6.768574676955947e-08
0.042945,-6.7672112584601e-08
0.043045,-6.765827704586025e-08
0.043145,-6.764425101642156e-08
0.043245,-6.763004659504239e-08
0.043345,-6.761570904304393e-08
0.043445,-6.760129676242366e-08
0.043545,-6.758689754550784e-08
0.043645,-6.757262500331433e-08
0.043745,-6.755859284245896e-08
0.043845,-6.754482802892952e-08
0.043945,-6.753132684279928e-08
0.044045,-6.751807724772999e-08
0.044145,-6.750502931570877e-08
0.044245,-6.749206875800899e-08
0.044345,-6.747912039004438e-08
0.044445,-6.746618014758156e-08
0.044545,-6.745327511748195e-08
0.044645,-6.744044003016158e-08
0.044745,-6.742774654461903e-08
0.044845,-6.741525673150946e-08
0.044945,-6.740294234417069e-08
0.045045,-6.739070179419229e-08
0.045145,-6.737849986987693e-08
0.045245,-6.736634767052565e-08
0.045345,-6.735422121612537e-08
0.045445,-6.734205679553375e-08
0.045545,-6.732980862893447e-08
0.045645,-6.731744849542166e-08
0.045745,-6.730499235895368e-08
0.045845,-6.729248858476484e-08
0.045945,-6.727999481389426e-08
0.046045,-6.726756753467247e-08
0.046145,-6.725524845535978e-08
0.046245,-6.724305847244206e-08
0.046345,-6.723100366009767e-08
0.046445,-6.721905477115375e-08
0.046545,-6.720714730910644e-08
0.046645,-6.719523940546082e-08
0.046745,-6.718335078687628e-08
0.046845,-6.717152546352243e-08
0.046945,-6.715981951266127e-08
0.047045,-6.714829013754022e-08
0.047145,-6.71369734764264e-08
0.047245,-6.712585506017583e-08
0.047345,-6.711491447326675e-08
0.047445,-6.710410935628088e-08
0.047545,-6.70933509182581e-08
0.047645,-6.708258431596035e-08
0.047745,-6.707180428500787e-08
0.047845,-6.70610111557361e-08
0.047945,-6.705021843418176e-08
0.048045,-6.703946581011033e-08
0.048145,-6.702880604428437e-08
0.048245,-6.701823228788383e-08
0.048345,-6.7007692517172e-08
0.048445,-6.699713875260877e-08
0.048545,-6.698648238344561e-08
0.048645,-6.69756190467297e-08
0.048745,-6.6964484115494e-08
0.048845,-6.695308200712792e-08
0.048945,-6.694144998064783e-08
0.049045,-6.692963123265351e-08
0.049145,-6.691770595540874e-08
0.049245,-6.690578049467907e-08
0.049345,-6.689392461764939e-08
0.049445,-6.688214903976703e-08
0.049545,-6.687041133604927e-08
0.049645,-6.685866117812443e-08
0.049745,-6.684687404795965e-08
0.049845,-6.683505196115518e-08
0.049945,-6.682321511120178e-08
0.050045,-6.681143186266772e-08
0.050145,-6.679980112367489e-08
0.050245,-6.67883990865304e-08
0.050345,-6.67772917310859e-08
0.050445,-6.676651059209837e-08
0.050545,-6.675603800234024e-08
0.050645,-6.67458515467596e-08
0.050745,-6.67359668456158e-08
0.050845,-6.672638647929388e-08
0.050945,-6.67171374578317e-08
0.051045,-6.670828043851086e-08
0.051145,-6.669987468904766e-08
0.051245,-6.669194485272271e-08
0.051345,-6.66845141752536e-08
0.051445,-6.667757318964256e-08
0.051545,-6.66710951296931e-08
0.051645,-6.66650030715531e-08
0.051745,-6.665915242260461e-08
0.051845,-6.66533358412277e-08
0.051945,-6.664737464446128e-08
0.052045,-6.664114050374161e-08
0.052145,-6.663451801721417e-08
0.052245,-6.662743392886893e-08
0.052345,-6.661984886417323e-08
0.052445,-6.661175149604257e-08
0.052545,-6.660319256604267e-08
0.052645,-6.6594247875569e-08
0.052745,-6.658498485314804e-08
0.052845,-6.657547928675108e-08
0.052945,-6.656582167832344e-08
0.053045,-6.655606857443265e-08
0.053145,-6.654618391755214e-08
0.053245,-6.653610020115157e-08
0.053345,-6.652578893711859e-08
0.053445,-6.651527624487539e-08
0.053545,-6.650463668737454e-08
0.053645,-6.64939620166154e-08
0.053745,-6.64833110593909e-08
0.053845,-6.647270382308768e-08
0.053945,-6.646213802018134e-08
0.054045,-6.645159830238024e-08
0.054145,-6.644107315015408e-08
0.054245,-6.643055215384319e-08
0.054345,-6.642001569784012e-08
0.054445,-6.640946565744671e-08
0.054545,-6.63988920714007e-08
0.054645,-6.638825774026503e-08
0.054745,-6.637755146601692e-08
0.054845,-6.636681094092471e-08
0.054945,-6.635607645507382e-08
0.055045,-6.634538765943163e-08
0.055145,-6.633478314266994e-08
0.055245,-6.632431074548753e-08
0.055345,-6.631404170365814e-08
0.055445,-6.630405318872654e-08
0.055545,-6.629438533896542e-08
0.055645,-6.628503436524543e-08
0.055745,-6.627596183708373e-08
0.055845,-6.62671105403575e-08
0.055945,-6.625838550159338e-08
0.056045,-6.624967287515064e-08
0.056145,-6.624085795652473e-08
0.056245,-6.623184435858221e-08
0.056345,-6.622259714431386e-08
0.056445,-6.621315585336022e-08
0.056545,-6.620364430290349e-08
0.056645,-6.619422157961874e-08
0.056745,-6.618502243788556e-08
0.056845,-6.617616933176188e-08
0.056945,-6.616775777217115e-08
0.057045,-6.615985369127403e-08
0.057145,-6.61524844553849e-08
0.057245,-6.614562608793088e-08
0.057345,-6.613924385383765e-08
0.057445,-6.613327206027005e-08
0.057545,-6.61275565820571e-08
0.057645,-6.612191807518162e-08
0.057745,-6.611618178544693e-08
0.057845,-6.61101849255354e-08
0.057945,-6.61038085828752e-08
0.058045,-6.609699590346143e-08
0.058145,-6.608978084875835e-08
0.058245,-6.608225145686164e-08
0.058345,-6.607448056383715e-08
0.058445,-6.606653497454237e-08
0.058545,-6.605847938493212e-08
0.058645,-6.605039290205404e-08
0.058745,-6.60423435354432e-08
0.058845,-6.603434803897957e-08
0.058945,-6.602640588023723e-08
0.059045,-6.601850302145758e-08
0.059145,-6.601061230295882e-08
0.059245,-6.600273850705387e-08
0.059345,-6.599491842059942e-08
0.059445,-6.598718507970485e-08
0.059545,-6.59795608965701e-08
0.059645,-6.597202664078256e-08
0.059745,-6.596451848033369e-08
0.059845,-6.595698699249164e-08
0.059945,-6.594941045425827e-08
0.060045,-6.594173504663446e-08
0.060145,-6.593387728083035e-08
0.060245,-6.592578363111027e-08
0.060345,-6.591745599810792e-08
0.060445,-6.590894221233497e-08
0.060545,-6.590030446252551e-08
0.060645,-6.589160495065931e-08
0.060745,-6.588286299797452e-08
0.060845,-6.587408652808636e-08
0.060945,-6.58653047249117e-08
0.061045,-6.585657685096113e-08
0.0611449999999999,-6.584796259675315e-08
0.061245,-6.583947725791847e-08
0.061345,-6.583110598295136e-08
0.061445,-6.582285167585514e-08
0.061545,-6.58147437852147e-08
0.061645,-6.580682426257162e-08
0.061745,-6.57991126761187e-08
0.061845,-6.579156684345124e-08
0.061945,-6.578412834546121e-08
0.062045,-6.577673195537567e-08
